<Actel_Data_File>
    <format name="NVM File" version="01.00.00"/>
    <header>
        <die>
            M2S060
        </die>
        <family>
            SmartFusion2
        </family>
        <module>
            
        </module>
        <package>
            484 FBGA
        </package>
        <version>
            11.8.1.12
        </version>
    </header>
    <nvm>
        <region name="RISCV_BOOT" address="0x000000" retrieveAddressFromFile="false" size="10712" format="HEX" type="Data Storage" wordSize="8" numberWords="10712" memFile="C:\Users\ciaran.lappin\Downloads\CreativeRes\M2S060-Arrow-SF2Plus-master\Modify_The_FPGA_Design\CoreRISCV_AXI4_BaseDesign\hex\riscv-systick-blinky.hex" memType="INTELHEX" memFileTimeStamp="" clientType="public" program="true">
            <read_protect/>
            6f00c0006f0000006f004003970200009382020373905230735000307350
            30307350203073504030970100209381817d17110020130101d06f00003d
            130101f823221100232421002326310023284100232a5100232c6100232e
            710023208102232291022324a1022326b1022328c102232ad102232ce102
            232ef1022320010523221105232421052326310523284105232a5105232c
            6105232e710523208107232291072324a1072326b1072328c107232ad107
            232ce107232ef10773252034f325103413060100ef00005e73101534b722
            00009382028073a0023083204100032181008321c1000322010183224101
            032381018323c1010324010283244102032581028325c102032601038326
            4103032781038327c1030328010483284104032981048329c104032a0105
            832a4105032b8105832bc105032c0106832c4106032d8106832dc106032e
            0107832e4107032f8107832fc1071301010873002030130101ff93050000
            232481002326110013040500ef00800bb707008003a547018327c5036384
            0700e780070013050400ef008075137735009307050093060500631c0704
            37867f7f1306f6f79305f0ff9386460003a7c6ffb377c700b387c7003367
            c700b3e7e700e384b7fe03c7c6ffb387a64003c6d6ff03c5e6ff63000704
            630a06023335a0003305f5001305e5ff678000006388060203c707009387
            170093f63700e31807feb387a7401385f7ff678000001385d7ff67800000
            1385c7ff67800000938607006ff0dff7130101fdb7070080232c410103aa
            4701232e31012320210383298a14232a5101232861012326710123261102
            232481022322910223248101130b050013890500930a1000930bf0ff6388
            090283a449001384f4ff6342040293942400b38499006304090483a74410
            6300f9041304f4ff9384c4ffe31674ff8320c10203248102832441020329
            01028329c101032a8101832a4101032b0101832bc100032c810013010103
            6780000083a7490003a744009387f7ff6302f40623a20400e30807fa83a7
            8918b3968a0003ac4900b3f7f600638a070283a7c918b3f6f60063920604
            83a5440813050b00e700070083a749006390870383278a14e38a37f79389
            07006ff09ff4e700070083a74900e38487ff83298a146ff05ff323a28900
            6ff01ffa03a54408e70007006ff05ffc130101fe232e8100130401022326
            a4fe2324b4fe2322c4fe6f00c0028327c4fe03a70700832784fe23a0e700
            8327c4fe938747002326f4fe832784fe938747002324f4fe032784fe8327
            44fee3f8e7fc130000000324c1011301010267800000130101fd23268102
            13040103232ea4fc232cb4fc8327c4fd2326f4fe6f0080018327c4fe23a0
            07008327c4fe938747002326f4fe0327c4fe832784fde3f2e7fe13000000
            0324c1021301010367800000130101fe232e1100232c810013040102b707
            00801386c701b707008093850700b727006013858758eff09ff2138681c4
            b707008093850702b72700601385075beff01ff1938541c5138581c4eff0
            5ff6938501c8138501c8eff09ff5930610001306c002b7150070138541c8
            ef00906ab72700609387c7522326f4fe8327c4fe2320f4fe232204fe2324
            04fe930704fe9385070013051000ef10d07e9307050013850700eff05fcb
            130101fe232e810013040102b717000093870780f3b747302326f4fef377
            04302324f4fe130000000324c1011301010267800000130101fe232e8100
            13040102b717000093870780f3a747302326f4fef36704302324f4fe1300
            00000324c1011301010267800000130101fd232611022324810213040103
            232ea4fc930710002326f4fe0327c4fd93074006b357f702138607009306
            000023a4c1c423a6d1c403a681c483a6c1c493070600b3e7d70063820708
            f32740f12324f4fe832784fe2322f4fe37070044b7060044b7c70000b387
            f60003a887ff83a8c7ff03a581c483a5c1c43306a800b3370601b386b800
            b387d700938607001305060093850600832644feb717000093870780b387
            f60093973700b307f70023a0a70023a2b70093070008f3a747302320f4fe
            eff09ff0232604fe8327c4fe138507008320c10203248102130101036780
            0000130101fe232e1100232c810013040102f32740f12326f4fe8327c4fe
            2324f4fe93070008f3b747302322f4fe37070044b7060044b7c70000b387
            f60003a887ff83a8c7ff03a581c483a5c1c43306a800b3370601b386b800
            b387d700938607001305060093850600832684feb717000093870780b387
            f60093973700b307f70023a0a70023a2b700ef00c00f93070008f3a74730
            2320f4fe130000008320c101032481011301010267800000130101fe232e
            1100232c8100130401022326a4fe2324b4fe8327c4fe63d207020327c4fe
            b707008093c7f7ff3377f7009307b0006316f700ef00c0066f0000058327
            c4fe63d207020327c4feb707008093c7f7ff3377f700930770006316f700
            eff05fef6f00800213065000b72700609385475313051000ef00806a8327
            c4fe9387170013850700ef00801b832784fe138507008320c10103248101
            1301010267800000130101ff2326110023248100130401011305a000ef00
            8018130101ff2326810013040101130000000324c1001301010167800000
            130101fe232e1100232c810013040102138581d1ef1000392326a4fe8327
            c4fe93c7f7ff93f7070f2324f4feb707008083a7070113971700b7070080
            23a8e700b707008003a707019307400063f8e700b70700801307100023a8
            e700b707008083a70701032784feb367f7002324f4fe832584fe138501d1
            ef10001e130000008320c101032481011301010267800000130101fd2326
            11022324810213040103232ea4fc232cb4fc13062000b72700609385c753
            0325c4fdef00005993078000a307f4fe6f0080088347f4fe9387f7ff2307
            f4fe8347e4fe939727001307f000b317f70013870700832784fd3377f700
            8347e4fe93972700b357f700a306f4fe0347d4fe9307900063eae7008347
            d4fe9387070393f7f70f6f0000018347d4fe9387770393f7f70f2306f4fe
            9307c4fe13061000938507000325c4fdef00c0508347f4fe9387f7ffa307
            f4fe8347f4fee39c07f6130000008320c102032481021301010367800000
            130101fd232611022324810213040103232ea4fcb7270060938707542326
            f4fe0325c4feeff09f8893070500138607008325c4fe13052000ef00804a
            8327c4fd9385070013052000eff01fee6f000000130101fe232e81001304
            01022326a4feb707008003a787008327c4fe3307f700938741d2636ef700
            b707008003a787008327c4fe3307f7009387011363f6e7009307f0ff6f00
            0003b707008003a787008327c4fe3307f700b707008023a4e700b7070080
            03a787008327c4feb307f040b307f700138507000324c101130101026780
            0000130101fe232e8100130401022326a4fe0327c4fe23a0e1c89307f0ff
            138507000324c1011301010267800000130101fe232e1100232c81001304
            01022326a4fe2324b4fe2322c4fe13052000eff05ffb9307050013850700
            8320c101032481011301010267800000130101fe232e1100232c81001304
            01022326a4fe2324b4fe2322c4fe2320d4fe13052000eff05ff793070500
            138507008320c101032481011301010267800000130101fe232e1100232c
            8100130401022326a4fe13059000eff01ff493070500138507008320c101
            032481011301010267800000130101fe232e1100232c8100130401022326
            a4fe2324b4fe2322c4fe1305c000eff05ff093070500138507008320c101
            032481011301010267800000130101ff2326110023248100130401011305
            b000eff05fed93070500138507008320c100032481001301010167800000
            130101fe232e1100232c8100130401022326a4fe2324b4fe0325c4feef00
            000693070500638c0700832784fe3727000023a8e700930700006f000001
            13059000eff09fe793070500138507008320c10103248101130101026780
            0000130101ff232681001304010193071000138507000324c10013010101
            67800000130101fe232e8100130401022326a4fe0327c4fe930710006308
            f7000327c4fe930720006316f700930710006f0000011307900023a0e1c8
            93070000138507000324c1011301010267800000130101fe232e1100232c
            8100130401022326a4fe2324b4fe13056001eff05fdd9307050013850700
            8320c101032481011301010267800000130101fe232e1100232c81001304
            01022326a4fe2324b4fe1305f001eff0dfd993070500138507008320c101
            032481011301010267800000130101fe232e1100232c8100130401022326
            a4fe2324b4fe2322c4fe0325c4feeff05ff2930705006386070093070000
            6f00000113059000eff09fd493070500138507008320c101032481011301
            010267800000130101fe232e1100232c8100130401022326a4fe2324b4fe
            2322c4fe0325c4feeff01fed93070500638e0700032644fe832584fe1385
            41c8ef001010930705006f00000113059000eff05fce9307050013850700
            8320c101032481011301010267800000130101fe232e1100232c81001304
            01022326a4fe2324b4fe1305d000eff0dfca93070500138507008320c101
            032481011301010267800000130101fe232e1100232c8100130401022326
            a4fe1305d000eff09fc793070500138507008320c1010324810113010102
            67800000130101fe232e1100232c8100130401022326a4fe13052000eff0
            5fc493070500138507008320c101032481011301010267800000130101fe
            232e1100232c8100130401022326a4fe1305a000eff01fc1930705001385
            07008320c101032481011301010267800000130101fd2326110223248102
            13040103232ea4fc232cb4fc232ac4fc832784fd2324f4fe0325c4fdeff0
            1fd993070500638a0706232604fe6f008005032784fe8327c4feb307f700
            1306100093850700138541c8ef00c061032784fe8327c4feb307f70003c7
            07009307a000631cf70013061000b727006093850756138541c8ef00005f
            8327c4fe938717002326f4fe0327c4fe832744fde362f7fa832744fd6f00
            000113059000eff0dfb493070500138507008320c1020324810213010103
            67800000130101ff232611002324810013040101eff08fe4130000008320
            c100032481001301010167800000130101fe232e1100232c810013040102
            f32700302326f4fe8327c4fe2324f4feeff0cfdd832784fe138507008320
            c101032481011301010267800000130101fe232e8100130401022326a4fe
            8327c4fe73900730130000000324c1011301010267800000130101fd2326
            810213040103232ea4fc232cb4fc8327c4fd2326f4fe8327c4fe032784fd
            23a0e700130000000324c1021301010367800000130101fd232681021304
            0103232ea4fc8327c4fd2326f4fe8327c4fe83a70700138507000324c102
            1301010367800000130101fd2326810213040103232ea4fc232cb4fc232a
            c4fc2328d4fc8327c4fd2326f4fe8327c4fe83a707002324f4fe032704fd
            832784fdb317f7002322f4fe032744fe832744fd3377f700832744fd93c6
            f7ff832784feb3f7f6003367f7008327c4fe23a0e700130000000324c102
            1301010367800000130101fd2326810213040103232ea4fc232cb4fc232a
            c4fc8327c4fd2326f4fe8327c4fe03a70700832744fd3377f700832784fd
            b357f7002324f4fe832784fe138507000324c10213010103678000001301
            01fd2326810213040103232ea4fc232cb4fc8327c4fd2326f4fe832784fd
            13970701135707018327c4fe2390e700130000000324c102130101036780
            0000130101fd2326810213040103232ea4fc8327c4fd2326f4fe8327c4fe
            83d707009397070193d70701138507000324c10213010103678000001301
            01fd2326810213040103232ea4fc232cb4fc232ac4fc2328d4fc8327c4fd
            2326f4fe8327c4fe83d707002315f4fe032704fd832784fdb317f7002314
            f4fe832744fd1397070113570701835784feb377f7001397070113570701
            832744fd9397070193d7070193c7f7ff9396070193d606018357a4feb3f7
            f6009397070193d70701b367f70013970701135707018327c4fe2390e700
            130000000324c1021301010367800000130101fd2326810213040103232e
            a4fc232cb4fc232ac4fc8327c4fd2326f4fe8327c4fe83d7070093970701
            93d7070113870700832744fd3377f700832784fdb357f7002315f4fe8357
            a4fe138507000324c1021301010367800000130101fd2326810213040103
            232ea4fc232cb4fc8327c4fd2326f4fe832784fd13f7f70f8327c4fe2380
            e700130000000324c1021301010367800000130101fd2326810213040103
            232ea4fc8327c4fd2326f4fe8327c4fe83c7070093f7f70f138507000324
            c1021301010367800000130101fd2326810213040103232ea4fc232cb4fc
            232ac4fc2328d4fc8327c4fd2326f4fe8327c4fe83c70700a305f4fe0327
            04fd832784fdb317f7002305f4fe832744fd13f7f70f8347a4feb377f700
            13f7f70f832744fd93f7f70f93c7f7ff93f6f70f8347b4feb3f7f60093f7
            f70fb367f70013f7f70f8327c4fe2380e700130000000324c10213010103
            67800000130101fd2326810213040103232ea4fc232cb4fc232ac4fc8327
            c4fd2326f4fe8327c4fe83c7070093f7f70f13870700832744fd3377f700
            832784fdb357f700a305f4fe8347b4fe138507000324c102130101036780
            0000130101fd232611022324810213040103232ea4fc232cb4fc13070600
            93870600231be4fca30af4fc8327c4fd638e070c034754fd9307700063e8
            e70c035764fdb72700006372f70c832784fd13878700835764fd93f7f70f
            9385070013050700eff09fe4832784fd9386c700034754fd835764fd93d7
            574093f7877fb367f7009385070013850600eff01fe28327c4fd032784fd
            23a0e7008327c4fd83a707009387070113850700eff0dfe39307050093f7
            2700a307f4fe6f0000048327c4fd83a707009387470013850700eff09fe1
            930705002307f4fe8327c4fd83a707009387070113850700eff0dfdf9307
            050093f72700a307f4fe8347f4fee39007fc8327c4fd2382070013000000
            8320c102032481021301010367800000130101fd23261102232481021304
            0103232ea4fc232cb4fc232ac4fc8327c4fd63800708832784fd638c0706
            832744fd63880706232604fe6f00c0058327c4fd83a70700938707011385
            0700eff0dfd79307050093f71700a305f4fe8347b4fee38e07fc8327c4fd
            83a60700032784fd8327c4feb307f70083c707009385070013850600eff0
            9fd08327c4fe938717002326f4fe0327c4fe832744fde360f7fa13000000
            8320c102032481021301010367800000130101fd23261102232481021304
            0103232ea4fc232cb4fc232ac4fc232604fe8327c4fd6380070a832784fd
            638c0708832744fd638807088327c4fd83a707009387070113850700eff0
            dfcc9307050093f71700a305f4fe8347b4fe638407068327c4fd83a60700
            032784fd8327c4feb307f70083c707009385070013850600eff09fc58327
            c4fe938717002326f4fe8327c4fd83a707009387070113850700eff05fc7
            9307050093f71700a305f4fe8347b4fe638807000327c4fe832744fde360
            f7fa8327c4fe138507008320c102032481021301010367800000130101fd
            23261102232481022322910213040103232ea4fc232cb4fc232ac4fc2324
            04fe8327c4fd6386070e832784fd6382070e832744fd638e070c232404fe
            8327c4fd83a707009387070113850700eff09fbe93070500a303f4fe8327
            c4fd03c74700834774feb367f70013f7f70f8327c4fd2382e700834774fe
            93f72700a307f4fe6f00c007032784fd832784feb304f7008327c4fd83a7
            07009387470013850700eff05fb9930705002380f400832784fe93871700
            2324f4fe8327c4fd83a707009387070113850700eff0dfb693070500a303
            f4fe8327c4fd03c74700834774feb367f70013f7f70f8327c4fd2382e700
            834774fe93f72700a307f4fe8347f4fe63880700032784fe832744fde36c
            f7f6832784fe138507008320c10203248102832441021301010367800000
            130101fd232611022324810213040103232ea4fc232cb4fc8327c4fd6380
            0708832784fd638c0706232604fe6f00c0058327c4fd83a7070093870701
            13850700eff09fac9307050093f71700a305f4fe8347b4fee38e07fc8327
            c4fd83a60700032784fd8327c4feb307f70083c707009385070013850600
            eff05fa58327c4fe938717002326f4fe032784fd8327c4feb307f70083c7
            0700e39c07f8130000008320c102032481021301010367800000130101fd
            2326810213040103232ea4fc9307f0ffa307f4fe8327c4fd638207028327
            c4fd83c7470093d7274093f7f70f93f77700a307f4fe8327c4fd23820700
            8347f4fe138507000324c1021301010367800000130101fd232611022324
            810213040103232ea4fc232cb4fc232ac4fca30704fe832784fd2324f4fe
            8327c4fd032784fd23a0e7008327c4fd032744fd23a2e700a30704fe8327
            84fd2324f4fe6f00800293050000032584feeff01f97832784fe93874700
            2324f4fe8347f4fe93871700a307f4fe0347f4fe9307f001e3fae7fc8327
            c4fd83a7470013071000638ae7021307100063e4e706130720006384e700
            6f00000c8327c4fd83a70700938707089305f0ff13850700eff04fe66f00
            400a8327c4fd83a7070013870708b70701009385f7ff13050700eff04ff7
            8327c4fd83a7070013874708b70701009385f7ff13050700eff08ff56f00
            80068327c4fd83a70700938707089305f00f13850700eff09f8b8327c4fd
            83a70700938747089305f00f13850700eff01f8a8327c4fd83a707009387
            87089305f00f13850700eff09f888327c4fd83a707009387c7089305f00f
            13850700eff01f8713000000130000008320c10203248102130101036780
            0000130101fd232611022324810213040103232ea4fc232cb4fc232ac4fc
            032784fd9307f00163e8e7028327c4fd83a707002326f4fe832784fd9397
            27000327c4feb307f7002326f4fe832544fd0325c4feeff08fd513000000
            8320c102032481021301010367800000130101fe232e1100232c81001304
            01022326a4fe2324b4fe8327c4fe83a7470013071000638ae70213071000
            63eee706130720006384e7006f0000108327c4fe83a707009387070a8325
            84fe13850700eff00fcf6f00400e8327c4fe83a707009387070a032784fe
            13170701135707019305070013850700eff08fdf8327c4fe83a707001387
            470a832784fe93d707019397070193d707019385070013050700eff00fdd
            6f0040098327c4fe83a707009387070a032784fe1377f70f930507001385
            0700eff08ff28327c4fe83a707001387470a832784fe93d7870093f7f70f
            9385070013050700eff04ff08327c4fe83a707001387870a832784fe93d7
            070193f7f70f9385070013050700eff00fee8327c4fe83a707001387c70a
            832784fe93d7870193f7f70f9385070013050700eff0cfeb130000001300
            00008320c101032481011301010267800000130101fd2326110223248102
            13040103232ea4fc232604fe8327c4fd83a7470013071000638ae7021307
            100063e2e708130720006384e7006f0080128327c4fd83a7070093870709
            13850700eff00fbe2326a4fe6f00c0108327c4fd83a70700938707091385
            0700eff0cfcf93070500138707008327c4feb3e7e7002326f4fe8327c4fd
            83a707009387470913850700eff04fcd9307050093970701138707008327
            c4feb3e7e7002326f4fe6f00400b8327c4fd83a707009387070913850700
            eff0cfe193070500138707008327c4feb3e7e7002326f4fe8327c4fd83a7
            07009387470913850700eff04fdf9307050093978700138707008327c4fe
            b3e7e7002326f4fe8327c4fd83a707009387870913850700eff08fdc9307
            050093970701138707008327c4feb3e7e7002326f4fe8327c4fd83a70700
            9387c70913850700eff0cfd99307050093978701138707008327c4feb3e7
            e7002326f4fe130000008327c4fe138507008320c1020324810213010103
            67800000130101fd232611022324810213040103232ea4fc232604fe8327
            c4fd83a7470013071000638ae7021307100063e2e708130720006384e700
            6f0080128327c4fd83a707009387070a13850700eff08fa62326a4fe6f00
            c0108327c4fd83a707009387070a13850700eff04fb89307050013870700
            8327c4feb3e7e7002326f4fe8327c4fd83a707009387470a13850700eff0
            cfb59307050093970701138707008327c4feb3e7e7002326f4fe6f00400b
            8327c4fd83a707009387070a13850700eff0cfb293070500138707008327
            c4feb3e7e7002326f4fe8327c4fd83a707009387470a13850700eff04fb0
            9307050093978700138707008327c4feb3e7e7002326f4fe8327c4fd83a7
            07009387870a13850700eff08fad9307050093970701138707008327c4fe
            b3e7e7002326f4fe8327c4fd83a707009387c70a13850700eff0cfaa9307
            050093978701138707008327c4feb3e7e7002326f4fe130000008327c4fe
            138507008320c102032481021301010367800000130101fd232611022324
            810213040103232ea4fc232cb4fc93070600a30bf4fc8327c4fd83a74700
            13071000638ae7081307100063e0e714130720006384e7006f00801e8327
            c4fd83a707009387070a13850700eff08f8e2326a4fe834774fd63940702
            13071000832784fdb317f70093c7f7ff138707008327c4feb3f7e7002326
            f4fe6f00000213071000832784fdb317f700138707008327c4feb3e7e700
            2326f4fe8327c4fd83a707009387070a8325c4fe13850700eff0cf846f00
            c0168327c4fd03a70700832784fd93d7470093972700b307f7009387070a
            2322f4fe032544feeff00f99930705002315f4fe834774fd639007048327
            84fd93f7f70013071000b317f7009397070193d7074193c7f7ff13970701
            135707418317a4feb377f7009397070193d707412315f4fe6f0000038327
            84fd93f7f70013071000b317f70013970701135707418317a4feb367f700
            9397070193d707412315f4fe8357a4fe93850700032544feeff08f8c6f00
            800b8327c4fd03a70700832784fd93d7370093972700b307f7009387070a
            2320f4fe032504feeff04fa593070500a304f4fe834774fd639007048327
            84fd93f7770013071000b317f7009397870193d7874193c7f7ff13978701
            13578741830794feb377f7009397870193d78741a304f4fe6f0000038327
            84fd93f7770013071000b317f7001397870113578741830794feb367f700
            9397870193d78741a304f4fe834794fe93850700032504feeff00f991300
            0000130000008320c102032481021301010367800000130101fd23261102
            2324810213040103232ea4fc232cb4fc232ac4fc8327c4fd83a707002326
            f4fe832744fd13071000638ce7001307100063e2e706130720006388e70a
            6f00000f13061000832584fd0325c4fdeff01fd78327c4fd03a707008327
            84fd93972700b307f7002326f4fe0325c4feeff0cf93930705002324f4fe
            832784fe93e747002324f4fe832584fe0325c4feeff00f8e6f00c0091306
            0000832584fd0325c4fdeff0dfd18327c4fd03a70700832784fd93972700
            b307f7002326f4fe0325c4feeff08f8e930705002324f4fe832784fe93e7
            47002324f4fe832584fe0325c4feeff0cf886f0080048327c4fd03a70700
            832784fd93972700b307f7002326f4fe0325c4feeff04f8a930705002324
            f4fe832784fe93f7b7ff2324f4fe832584fe0325c4feeff08f8413000000
            130000008320c102032481021301010367800000130101fd232611022324
            810213040103232ea4fc232cb4fc8327c4fd83a707002326f4fe032784fd
            9307f00163e0e704832784fd939727000327c4feb307f7002326f4fe0325
            c4feeff00f82930705002324f4fe832784fe93e787002324f4fe832584fe
            0325c4feefe05ffc130000008320c1020324810213010103678000001301
            01fd232611022324810213040103232ea4fc232cb4fc8327c4fd83a70700
            2326f4fe032784fd9307f00163e0e704832784fd939727000327c4feb307
            f7002326f4fe0325c4feefe01ffa930705002324f4fe832784fe93f777ff
            2324f4fe832584fe0325c4feefe05ff4130000008320c102032481021301
            010367800000130101fd232611022324810213040103232ea4fc232cb4fc
            13071000832784fdb317f7002326f4fe8327c4fd83a7470013071000638a
            e7021307100063e4e706130720006384e7006f00800d8327c4fd83a70700
            938707088325c4fe13850700efe01fc26f00c00b8327c4fd83a707009387
            07088325c4fe13850700efe05fd38327c4fd83a70700138747088327c4fe
            93d707019385070013050700efe05fd16f0000088327c4fd83a707009387
            07088325c4fe13850700efe05fe78327c4fd83a70700138747088327c4fe
            93d787009385070013050700efe05fe58327c4fd83a70700138787088327
            c4fe93d707019385070013050700efe05fe38327c4fd83a707001387c708
            8327c4fe93d787019385070013050700efe05fe113000000130000008320
            c102032481021301010367800000130101fe232e810013040102f32740f1
            2324f4fe832784fe2322f4fe232604fe6f00c00337070040832744fe9396
            57008327c4feb386f600b717000093870780b387f60093972700b307f700
            23a007008327c4fe938717002326f4fe8327c4fee38207fc232604fe6f00
            4002370700408327c4fe93972700b307f70023a207008327c4fe93871700
            2326f4fe0327c4fe9307e001e3fce7fc37070040832744fe938727219397
            c700b307f70023a00700130000000324c1011301010267800000130101fd
            232611022324810213040103232ea4fc232cb4fceff09ff213062000b725
            0070138581d1eff08fb413062000b7550070138501d1eff08fb3b7070080
            83a7c70093850700138541c8eff00fa2b707008083a7070093d717001385
            0700efe0cf829307e4fe1306100093850700138541c8eff08f8c93070500
            a307f4fe8347f4fee38007fe9307e4fe1306100093850700138541c8efe0
            5ff16ff09ffc68656c6c6f000000747261700a000000307800000a50726f
            67616d2068617320657869746564207769746820636f64653a0000000d00
            00000d0a496e7465727275707420426c696e6b79204578616d706c650d0a
            0000000043000000c07af204500400802405008064250060010000002000
            008020000080000000000000000000000000000000000c03008074030080
            dc0300800000000000000000000000000000000000000000000000000000
            000000000000000000008425006000000000000000000000000000000000
            000000000000000000000000000000000000000000000000000000000000
            000000000000000000000000000000000000000000000000000000000000
            000000000000000000000000000000000000000000000000000000000000
            00000000000001000000000000000e33cdab34126de6ecde05000b000000
            000000000000000000000000000000000000000000000000000000000000
            000000000000000000000000000000000000000000000000000000000000
            000000000000000000000000000000000000000000000000000000000000
            000000000000000000000000000000000000000000000000000000000000
            000000000000000000000000000000000000000000000000000000000000
            000000000000000000000000000000000000000000000000000000000000
            000000000000000000000000000000000000000000000000000000000000
            000000000000000000000000000000000000000000000000000000000000
            000000000000000000000000000000000000000000000000000000000000
            000000000000000000000000000000000000000000000000000000000000
            000000000000000000000000000000000000000000000000000000000000
            000000000000000000000000000000000000000000000000000000000000
            000000000000000000000000000000000000000000000000000000000000
            000000000000000000000000000000000000000000000000000000000000
            000000000000000000000000000000000000000000000000000000000000
            000000000000000000000000000000000000000000000000000000000000
            000000000000000000000000000000000000000000000000000000000000
            000000000000000000000000000000000000000000000000000000000000
            000000000000000000000000000000000000000000000000000000000000
            000000000000000000000000000000000000000000000000000000000000
            000000000000000000000000000000000000000000000000000000000000
            000000000000000000000000000000000000000000000000000000000000
            000000000000000000000000000000000000000000000000000000000000
            000000000000000000000000000000000000000000000000000000000000
            000000000000000000000000000000000000000000000000000000000000
            000000000000000000000000000000000000000000000000000000000000
            000000000000000000000000000000000000000000000000000000000000
            000000000000000000000000000000000000000000000000000000000000
            000000000000000000000000000000000000000000000000000000000000
            0000
            <crc>
                8018
            </crc>
        </region>
        <region name="M3_BOOT" address="0x078000" retrieveAddressFromFile="false" size="3488" format="HEX" type="Data Storage" wordSize="8" numberWords="3488" memFile="C:\Users\ciaran.lappin\Downloads\CreativeRes\M2S060-Arrow-SF2Plus-master\Modify_The_FPGA_Design\CoreRISCV_AXI4_BaseDesign\hex\M3-Disable_M2S090-Eval-Kit_Enable-DDR.hex" memType="INTELHEX" memFileTimeStamp="" clientType="public" program="true">
            <read_protect/>
            00000120910100007f030000810300008303000085030000870300000000
            0000000000000000000000000000890300008b030000000000008d030000
            8f03000091030000930300009503000097030000990300009b0300009d03
            00009f030000a1030000a3030000a5030000a7030000a9030000ab030000
            ad030000af030000b1030000b3030000b5030000b7030000b9030000bb03
            0000bd030000bf030000c1030000c3030000c5030000c7030000c9030000
            cb030000cd030000cf030000d1030000d3030000d5030000d7030000d903
            0000db030000dd030000df030000e1030000e3030000e5030000e7030000
            e9030000eb030000ed030000ef030000f1030000f3030000f5030000f703
            0000f9030000fb030000fd030000ff030000010400000304000005040000
            07040000090400000b0400000d0400000f04000011040000130400001504
            000017040000190400001b0400001d0400001f0400002104000023040000
            2504000027040000290400002b0400002d0400002f040000310400003304
            000000000000000000004ff0000bdff8be020068dff8b612096801f00301
            00f01c00142801d14bf0020b002901d04bf0010bbbf1000f05d0a748a749
            dff8722200f09ff8a64880470bf0020abaf1000f0cd0dff86e02dff86e12
            02680b680fb44ff000024ff0ff0302600b609d4800220123022808d1dff8
            3e120a60dff842120a60dff836120b60012808d1dff82e120a60dff82a12
            0a60dff81e120b609148002809d191489149924a00f032f891489249924a
            00f02df892489249934a00f028f892489349dff8e62100f05af8bbf1000f
            12d090489049dff8da2100f051f80bf0020abaf1000f07d00fbc02600b60
            00bfaff30080aff30080dff820020ff2030e00474ff000004ff00001dff8
            14f2fee72de9f841884225d0b2eb010200d5fee740ea010313f0030302d0
            00f01df819e04ff0000390461211f7d09a421cbff0c8f0c103f10103f8d1
            08f00f08b8f1000f08d004780c7000f1010001f10101b8f10108f6d1bde8
            f88108b54ff0000303780b7000f1010001f10101013af7d108bd884237d0
            00f00306002e14d04ff00405a5eb06044ff0080707fb06f8914669fa08f9
            002c07d080f8009069fa07f900f10100013cf5e74ff000060f46091a8846
            0911914614461546b14206d018bfa0e8340206f10106b142f8d108f00f08
            b8f1000f07d002704fea322200f10100b8f10108f4e77047fee7fee7fee7
            fee7fee7fee7fee7fee7fee7fee7fee7fee7fee7fee7fee7fee7fee7fee7
            fee7fee7fee7fee7fee7fee7fee7fee7fee7fee7fee7fee7fee7fee7fee7
            fee7fee7fee7fee7fee7fee7fee7fee7fee7fee7fee7fee7fee7fee7fee7
            fee7fee7fee7fee7fee7fee7fee7fee7fee7fee7fee7fee7fee7fee7fee7
            fee7fee7fee7fee7fee7fee7fee7fee7fee7fee7fee7fee7fee7fee7fee7
            fee7fee7fee7fee7fee7fee7fee7fee7fee7fee7fee7fee7fee770470000
            0000a2a2a2a2008003400880034010800340308003403480034038800340
            18080240000000f0002000000120ad040000000000000100000000000060
            0000000090010000d0060060d00600007009000070090060000000203004
            002030040020500400205004002000f00020dd070000910700004ff60202
            f8b5394bd3f84c1191420bd1d3f8982042f48072c3f89820d3f8982022f0
            8062c3f89820314a3049536943f4007353618b6883b1fff7a6ff2d4b2b48
            1a46816c21f480318164196841f0030119605368db07fcd5f8bd274b274a
            1c6802f17203214632f8020f934241f8040bf9d1234804f5077233f8021f
            834242f8041bf9d11f4b0122b3f8f470b3f8f660b3f8f850b3f8fa00b3f8
            fc10c4f80074c4f80464b3f8fe70c4f80854b3f80061c4f80c04b3f80251
            c4f81014b3f80401b3f80611b3f80831c4f81474c4f81864c4f81c54c4f8
            4004c4f84414c4f848342260d4f8e430002bfbd0a5e70080034000ed00e0
            00200240c0060000b2050000a6060000b405000000000000880c47010200
            000081009f0900003333ffff777777070100004208003300000000000000
            8102230035020200670178011100330d1400100000330000000014040000
            00000000020000008040f8800700f8800700000200000000030003004000
            000000000000000009030100000000000000800000000000030000000000
            0000000000000b0000000000000000004000010410400000000000000000
            000000000000000000000000000000004000010410400000000000000000
            000000000000000000000000000000000000400001041040000000000000
            000000000000210000000300010001000000090000000100000000000000
            000000000000000000000000000000000000000802400000000000000000
            0000000010b5054c237833b9044b13b10448aff300800123237010bd3004
            00200000000040090000084b10b51bb108490848aff300800848036803b9
            10bd074b002bfbd0bde81040184700bf0000000034040020400900000000
            002000000000164b10b49a6c164942f480129a64986c01f11f0440f0f070
            98643222012001e011f9012f53099b0003f1604302f01f0203f5614300fa
            02f2a142c3f88020c3f88021edd1054b10bc9a6c22f0f0729a649a6c22f4
            80129a64704700bf008003401809000000b583b0fff7caff0e4b4ff05532
            c3f8882072b630bf1a464ff0aa300a49c3f888000968c9090191019b2bb1
            019b013b0193019b002bf9d1d2f88830db43c2f88830f0e7003001400400
            002070b50f4e0f4d761bb61018bf002405d0013455f8043b9847a642f9d1
            0a4e0b4d00f0a0f8761bb61018bf002406d0013455f8043b9847a642f9d1
            70bd70bd00bf58090000580900006009000058090000024b13b1024800f0
            05b87047000000004d080000002301461a46184600f014b838b5074d074c
            2c1ba41005d0013c55f8043d9847002cf9d1bde8384000f070b864090000
            600900002de9f047254c064625688846d5f8484192469946c4b360681f28
            17dc411c76b104eb8003c3f888a0d4f88851012282401543022ec4f88851
            c3f808911ed0831c6160002044f82380bde8f087144b03b34ff4c870aff3
            00800446d0b1d5f84831002784e888003846c5f848410121c4f88871c4f8
            8c71002ee1d0d1e7d4f88c311a43c4f88c21dae705f5a674c5f84841c1e7
            4ff0ff30bde8f08700bf3c0900000000000032333435363738393a3b3c3d
            3e3f404142434445464748494a4b4c4d4e4f50514300000008000020f8b5
            00bff8bc08bc9e467047f8b500bff8bc08bc9e4670472d080000f5060000
            d10600000000000000000000000000000000000000e1f50500000000f402
            00205c030020c40300200000000000000000000000000000000000000000
            000000000000000000000000000000003809000000000000000000000000
            000000000000000000000000000000000000000000000000000000000000
            000000000000000000000000000000000000000000000000000000000000
            000000000000000000000000000000000000000000000000000000000000
            00000000000000000000000001000000000000000e33cdab34126de6ecde
            05000b000000000000000000000000000000000000000000000000000000
            000000000000000000000000000000000000000000000000000000000000
            000000000000000000000000000000000000000000000000000000000000
            000000000000000000000000000000000000000000000000000000000000
            000000000000000000000000000000000000000000000000000000000000
            000000000000000000000000000000000000000000000000000000000000
            000000000000000000000000000000000000000000000000000000000000
            000000000000000000000000000000000000000000000000000000000000
            000000000000000000000000000000000000000000000000000000000000
            000000000000000000000000000000000000000000000000000000000000
            000000000000000000000000000000000000000000000000000000000000
            000000000000000000000000000000000000000000000000000000000000
            000000000000000000000000000000000000000000000000000000000000
            000000000000000000000000000000000000000000000000000000000000
            000000000000000000000000000000000000000000000000000000000000
            000000000000000000000000000000000000000000000000000000000000
            000000000000000000000000000000000000000000000000000000000000
            000000000000000000000000000000000000000000000000000000000000
            000000000000000000000000000000000000000000000000000000000000
            000000000000000000000000000000000000000000000000000000000000
            000000000000000000000000000000000000000000000000000000000000
            000000000000000000000000000000000000000000000000000000000000
            000000000000000000000000000000000000000000000000000000000000
            000000000000000000000000000000000000000000000000000000000000
            000000000000000000000000000000000000000000000000000000000000
            000000000000000000000000000000000000000000000000000000000000
            000000000000000000000000000000000000000000000000000000000000
            000000000000000000000000000000000000000000000000000000000000
            000000000000000000000000000000000000000000000000000000000000
            0000000000000000
            <crc>
                59b4
            </crc>
        </region>
    </nvm>
</Actel_Data_File>
